freq[Hz],er_1,er_2.26,er_4.7,er_10
1000000 ,300,199.56,138.38,94.87
1020000 ,294.12,195.64,135.67,93.01
1050000 ,285.71,190.05,131.79,90.35
1070000 ,280.37,186.5,129.33,88.66
1100000 ,272.73,181.42,125.8,86.24
1120000 ,267.86,178.18,123.55,84.7
1150000 ,260.87,173.53,120.33,82.49
1170000 ,256.41,170.56,118.27,81.08
1200000 ,250,166.3,115.32,79.06
1230000 ,243.9,162.24,112.5,77.13
1260000 ,238.1,158.38,109.83,75.29
1290000 ,232.56,154.7,107.27,73.54
1320000 ,227.27,151.18,104.83,71.87
1350000 ,222.22,147.82,102.5,70.27
1380000 ,217.39,144.61,100.28,68.75
1410000 ,212.77,141.53,98.14,67.28
1450000 ,206.9,137.63,95.43,65.43
1480000 ,202.7,134.84,93.5,64.1
1510000 ,198.68,132.16,91.64,62.83
1550000 ,193.55,128.75,89.28,61.21
1580000 ,189.87,126.3,87.58,60.04
1620000 ,185.19,123.18,85.42,58.56
1660000 ,180.72,120.22,83.36,57.15
1700000 ,176.47,117.39,81.4,55.8
1740000 ,172.41,114.69,79.53,54.52
1780000 ,168.54,112.11,77.74,53.3
1820000 ,164.84,109.65,76.03,52.13
1860000 ,161.29,107.29,74.4,51
1910000 ,157.07,104.48,72.45,49.67
1950000 ,153.85,102.34,70.96,48.65
2000000 ,150,99.78,69.19,47.43
2040000 ,147.06,97.82,67.83,46.5
2090000 ,143.54,95.48,66.21,45.39
2140000 ,140.19,93.25,64.66,44.33
2190000 ,136.99,91.12,63.19,43.32
2240000 ,133.93,89.09,61.78,42.35
2290000 ,131,87.14,60.43,41.43
2340000 ,128.21,85.28,59.14,40.54
2400000 ,125,83.15,57.66,39.53
2450000 ,122.45,81.45,56.48,38.72
2510000 ,119.52,79.5,55.13,37.8
2570000 ,116.73,77.65,53.84,36.91
2630000 ,114.07,75.88,52.62,36.07
2690000 ,111.52,74.18,51.44,35.27
2750000 ,109.09,72.57,50.32,34.5
2820000 ,106.38,70.76,49.07,33.64
2880000 ,104.17,69.29,48.05,32.94
2950000 ,101.69,67.65,46.91,32.16
3020000 ,99.34,66.08,45.82,31.41
3090000 ,97.09,64.58,44.78,30.7
3160000 ,94.94,63.15,43.79,30.02
3240000 ,92.59,61.59,42.71,29.28
3310000 ,90.63,60.29,41.81,28.66
3390000 ,88.5,58.87,40.82,27.98
3470000 ,86.46,57.51,39.88,27.34
3550000 ,84.51,56.21,38.98,26.72
3630000 ,82.64,54.97,38.12,26.13
3720000 ,80.65,53.64,37.2,25.5
3800000 ,78.95,52.52,36.42,24.97
3890000 ,77.12,51.3,35.57,24.39
3980000 ,75.38,50.14,34.77,23.84
4070000 ,73.71,49.03,34,23.31
4170000 ,71.94,47.86,33.18,22.75
4270000 ,70.26,46.73,32.41,22.22
4370000 ,68.65,45.67,31.67,21.71
4470000 ,67.11,44.64,30.96,21.22
4570000 ,65.65,43.67,30.28,20.76
4680000 ,64.1,42.64,29.57,20.27
4790000 ,62.63,41.66,28.89,19.81
4900000 ,61.22,40.73,28.24,19.36
5010000 ,59.88,39.83,27.62,18.94
5130000 ,58.48,38.9,26.97,18.49
5250000 ,57.14,38.01,26.36,18.07
5370000 ,55.87,37.16,25.77,17.67
5500000 ,54.55,36.28,25.16,17.25
5620000 ,53.38,35.51,24.62,16.88
5750000 ,52.17,34.71,24.07,16.5
5890000 ,50.93,33.88,23.49,16.11
6030000 ,49.75,33.09,22.95,15.73
6170000 ,48.62,32.34,22.43,15.38
6310000 ,47.54,31.63,21.93,15.03
6460000 ,46.44,30.89,21.42,14.69
6610000 ,45.39,30.19,20.93,14.35
6760000 ,44.38,29.52,20.47,14.03
6920000 ,43.35,28.84,20,13.71
7080000 ,42.37,28.19,19.55,13.4
7240000 ,41.44,27.56,19.11,13.1
7410000 ,40.49,26.93,18.67,12.8
7590000 ,39.53,26.29,18.23,12.5
7760000 ,38.66,25.72,17.83,12.23
7940000 ,37.78,25.13,17.43,11.95
8130000 ,36.9,24.55,17.02,11.67
8320000 ,36.06,23.99,16.63,11.4
8510000 ,35.25,23.45,16.26,11.15
8710000 ,34.44,22.91,15.89,10.89
8910000 ,33.67,22.4,15.53,10.65
9120000 ,32.89,21.88,15.17,10.4
9330000 ,32.15,21.39,14.83,10.17
9550000 ,31.41,20.9,14.49,9.93
9770000 ,30.71,20.43,14.16,9.71
10000000 ,30,19.96,13.84,9.49
10200000 ,29.41,19.56,13.57,9.3
10500000 ,28.57,19.01,13.18,9.04
10700000 ,28.04,18.65,12.93,8.87
11000000 ,27.27,18.14,12.58,8.62
11200000 ,26.79,17.82,12.36,8.47
11500000 ,26.09,17.35,12.03,8.25
11700000 ,25.64,17.06,11.83,8.11
12000000 ,25,16.63,11.53,7.91
12300000 ,24.39,16.22,11.25,7.71
12600000 ,23.81,15.84,10.98,7.53
12900000 ,23.26,15.47,10.73,7.35
13200000 ,22.73,15.12,10.48,7.19
13500000 ,22.22,14.78,10.25,7.03
13800000 ,21.74,14.46,10.03,6.87
14100000 ,21.28,14.15,9.81,6.73
14500000 ,20.69,13.76,9.54,6.54
14800000 ,20.27,13.48,9.35,6.41
15100000 ,19.87,13.22,9.16,6.28
15500000 ,19.35,12.87,8.93,6.12
15800000 ,18.99,12.63,8.76,6
16200000 ,18.52,12.32,8.54,5.86
16600000 ,18.07,12.02,8.34,5.71
17000000 ,17.65,11.74,8.14,5.58
17400000 ,17.24,11.47,7.95,5.45
17800000 ,16.85,11.21,7.77,5.33
18200000 ,16.48,10.96,7.6,5.21
18600000 ,16.13,10.73,7.44,5.1
19100000 ,15.71,10.45,7.25,4.97
19500000 ,15.38,10.23,7.1,4.87
20000000 ,15,9.98,6.92,4.74
20400000 ,14.71,9.78,6.78,4.65
20900000 ,14.35,9.55,6.62,4.54
21400000 ,14.02,9.33,6.47,4.43
21900000 ,13.7,9.11,6.32,4.33
22400000 ,13.39,8.91,6.18,4.24
22900000 ,13.1,8.71,6.04,4.14
23400000 ,12.82,8.53,5.91,4.05
24000000 ,12.5,8.31,5.77,3.95
24500000 ,12.24,8.15,5.65,3.87
25100000 ,11.95,7.95,5.51,3.78
25700000 ,11.67,7.76,5.38,3.69
26300000 ,11.41,7.59,5.26,3.61
26900000 ,11.15,7.42,5.14,3.53
27500000 ,10.91,7.26,5.03,3.45
28200000 ,10.64,7.08,4.91,3.36
28800000 ,10.42,6.93,4.8,3.29
29500000 ,10.17,6.76,4.69,3.22
30200000 ,9.93,6.61,4.58,3.14
30900000 ,9.71,6.46,4.48,3.07
31600000 ,9.49,6.32,4.38,3
32400000 ,9.26,6.16,4.27,2.93
33100000 ,9.06,6.03,4.18,2.87
33900000 ,8.85,5.89,4.08,2.8
34700000 ,8.65,5.75,3.99,2.73
35500000 ,8.45,5.62,3.9,2.67
36300000 ,8.26,5.5,3.81,2.61
37200000 ,8.06,5.36,3.72,2.55
38000000 ,7.89,5.25,3.64,2.5
38900000 ,7.71,5.13,3.56,2.44
39800000 ,7.54,5.01,3.48,2.38
40700000 ,7.37,4.9,3.4,2.33
41700000 ,7.19,4.79,3.32,2.28
42700000 ,7.03,4.67,3.24,2.22
43700000 ,6.86,4.57,3.17,2.17
44700000 ,6.71,4.46,3.1,2.12
45700000 ,6.56,4.37,3.03,2.08
46800000 ,6.41,4.26,2.96,2.03
47900000 ,6.26,4.17,2.89,1.98
49000000 ,6.12,4.07,2.82,1.94
50100000 ,5.99,3.98,2.76,1.89
51300000 ,5.85,3.89,2.7,1.85
52500000 ,5.71,3.8,2.64,1.81
53700000 ,5.59,3.72,2.58,1.77
55000000 ,5.45,3.63,2.52,1.72
56200000 ,5.34,3.55,2.46,1.69
57500000 ,5.22,3.47,2.41,1.65
58900000 ,5.09,3.39,2.35,1.61
60300000 ,4.98,3.31,2.29,1.57
61700000 ,4.86,3.23,2.24,1.54
63100000 ,4.75,3.16,2.19,1.5
64600000 ,4.64,3.09,2.14,1.47
66100000 ,4.54,3.02,2.09,1.44
67600000 ,4.44,2.95,2.05,1.4
69200000 ,4.34,2.88,2,1.37
70800000 ,4.24,2.82,1.95,1.34
72400000 ,4.14,2.76,1.91,1.31
74100000 ,4.05,2.69,1.87,1.28
75900000 ,3.95,2.63,1.82,1.25
77600000 ,3.87,2.57,1.78,1.22
79400000 ,3.78,2.51,1.74,1.19
81300000 ,3.69,2.45,1.7,1.17
83200000 ,3.61,2.4,1.66,1.14
85100000 ,3.53,2.34,1.63,1.11
87100000 ,3.44,2.29,1.59,1.09
89100000 ,3.37,2.24,1.55,1.06
91200000 ,3.29,2.19,1.52,1.04
93300000 ,3.22,2.14,1.48,1.02
95500000 ,3.14,2.09,1.45,0.99
97700000 ,3.07,2.04,1.42,0.97
100000000 ,3,2,1.38,0.95
102000000 ,2.94,1.96,1.36,0.93
105000000 ,2.86,1.9,1.32,0.9
107000000 ,2.8,1.87,1.29,0.89
110000000 ,2.73,1.81,1.26,0.86
112000000 ,2.68,1.78,1.24,0.85
115000000 ,2.61,1.74,1.2,0.82
117000000 ,2.56,1.71,1.18,0.81
120000000 ,2.5,1.66,1.15,0.79
123000000 ,2.44,1.62,1.13,0.77
126000000 ,2.38,1.58,1.1,0.75
129000000 ,2.33,1.55,1.07,0.74
132000000 ,2.27,1.51,1.05,0.72
135000000 ,2.22,1.48,1.03,0.7
138000000 ,2.17,1.45,1,0.69
141000000 ,2.13,1.42,0.98,0.67
145000000 ,2.07,1.38,0.95,0.65
148000000 ,2.03,1.35,0.93,0.64
151000000 ,1.99,1.32,0.92,0.63
155000000 ,1.94,1.29,0.89,0.61
158000000 ,1.9,1.26,0.88,0.6
162000000 ,1.85,1.23,0.85,0.59
166000000 ,1.81,1.2,0.83,0.57
170000000 ,1.76,1.17,0.81,0.56
174000000 ,1.72,1.15,0.8,0.55
178000000 ,1.69,1.12,0.78,0.53
182000000 ,1.65,1.1,0.76,0.52
186000000 ,1.61,1.07,0.74,0.51
191000000 ,1.57,1.04,0.72,0.5
195000000 ,1.54,1.02,0.71,0.49
200000000 ,1.5,1,0.69,0.47
204000000 ,1.47,0.98,0.68,0.47
209000000 ,1.44,0.95,0.66,0.45
214000000 ,1.4,0.93,0.65,0.44
219000000 ,1.37,0.91,0.63,0.43
224000000 ,1.34,0.89,0.62,0.42
229000000 ,1.31,0.87,0.6,0.41
234000000 ,1.28,0.85,0.59,0.41
240000000 ,1.25,0.83,0.58,0.4
245000000 ,1.22,0.81,0.56,0.39
251000000 ,1.2,0.8,0.55,0.38
257000000 ,1.17,0.78,0.54,0.37
263000000 ,1.14,0.76,0.53,0.36
269000000 ,1.12,0.74,0.51,0.35
275000000 ,1.09,0.73,0.5,0.34
282000000 ,1.06,0.71,0.49,0.34
288000000 ,1.04,0.69,0.48,0.33
295000000 ,1.02,0.68,0.47,0.32
302000000 ,0.99,0.66,0.46,0.31
309000000 ,0.97,0.65,0.45,0.31
316000000 ,0.95,0.63,0.44,0.3
324000000 ,0.93,0.62,0.43,0.29
331000000 ,0.91,0.6,0.42,0.29
339000000 ,0.88,0.59,0.41,0.28
347000000 ,0.86,0.58,0.4,0.27
355000000 ,0.85,0.56,0.39,0.27
363000000 ,0.83,0.55,0.38,0.26
372000000 ,0.81,0.54,0.37,0.26
380000000 ,0.79,0.53,0.36,0.25
389000000 ,0.77,0.51,0.36,0.24
398000000 ,0.75,0.5,0.35,0.24
407000000 ,0.74,0.49,0.34,0.23
417000000 ,0.72,0.48,0.33,0.23
427000000 ,0.7,0.47,0.32,0.22
437000000 ,0.69,0.46,0.32,0.22
447000000 ,0.67,0.45,0.31,0.21
457000000 ,0.66,0.44,0.3,0.21
468000000 ,0.64,0.43,0.3,0.2
479000000 ,0.63,0.42,0.29,0.2
490000000 ,0.61,0.41,0.28,0.19
501000000 ,0.6,0.4,0.28,0.19
513000000 ,0.58,0.39,0.27,0.18
525000000 ,0.57,0.38,0.26,0.18
537000000 ,0.56,0.37,0.26,0.18
550000000 ,0.55,0.36,0.25,0.17
562000000 ,0.53,0.36,0.25,0.17
575000000 ,0.52,0.35,0.24,0.16
589000000 ,0.51,0.34,0.23,0.16
603000000 ,0.5,0.33,0.23,0.16
617000000 ,0.49,0.32,0.22,0.15
631000000 ,0.48,0.32,0.22,0.15
646000000 ,0.46,0.31,0.21,0.15
661000000 ,0.45,0.3,0.21,0.14
676000000 ,0.44,0.3,0.2,0.14
692000000 ,0.43,0.29,0.2,0.14
708000000 ,0.42,0.28,0.2,0.13
724000000 ,0.41,0.28,0.19,0.13
741000000 ,0.4,0.27,0.19,0.13
759000000 ,0.4,0.26,0.18,0.12
776000000 ,0.39,0.26,0.18,0.12
794000000 ,0.38,0.25,0.17,0.12
813000000 ,0.37,0.25,0.17,0.12
832000000 ,0.36,0.24,0.17,0.11
851000000 ,0.35,0.23,0.16,0.11
871000000 ,0.34,0.23,0.16,0.11
891000000 ,0.34,0.22,0.16,0.11
912000000 ,0.33,0.22,0.15,0.1
933000000 ,0.32,0.21,0.15,0.1
955000000 ,0.31,0.21,0.14,0.1
977000000 ,0.31,0.2,0.14,0.1
1000000000 ,0.3,0.2,0.14,0.09
1020000000 ,0.29,0.2,0.14,0.09
1050000000 ,0.29,0.19,0.13,0.09
1070000000 ,0.28,0.19,0.13,0.09
1100000000 ,0.27,0.18,0.13,0.09
1120000000 ,0.27,0.18,0.12,0.08
1150000000 ,0.26,0.17,0.12,0.08
1170000000 ,0.26,0.17,0.12,0.08
1200000000 ,0.25,0.17,0.12,0.08
1230000000 ,0.24,0.16,0.11,0.08
1260000000 ,0.24,0.16,0.11,0.08
1290000000 ,0.23,0.15,0.11,0.07
1320000000 ,0.23,0.15,0.1,0.07
1350000000 ,0.22,0.15,0.1,0.07
1380000000 ,0.22,0.14,0.1,0.07
1410000000 ,0.21,0.14,0.1,0.07
1450000000 ,0.21,0.14,0.1,0.07
1480000000 ,0.2,0.13,0.09,0.06
1510000000 ,0.2,0.13,0.09,0.06
1550000000 ,0.19,0.13,0.09,0.06
1580000000 ,0.19,0.13,0.09,0.06
1620000000 ,0.19,0.12,0.09,0.06
1660000000 ,0.18,0.12,0.08,0.06
1700000000 ,0.18,0.12,0.08,0.06
1740000000 ,0.17,0.11,0.08,0.05
1780000000 ,0.17,0.11,0.08,0.05
1820000000 ,0.16,0.11,0.08,0.05
1860000000 ,0.16,0.11,0.07,0.05
1910000000 ,0.16,0.1,0.07,0.05
1950000000 ,0.15,0.1,0.07,0.05
2000000000 ,0.15,0.1,0.07,0.05
2040000000 ,0.15,0.1,0.07,0.05
2090000000 ,0.14,0.1,0.07,0.05
2140000000 ,0.14,0.09,0.06,0.04
2190000000 ,0.14,0.09,0.06,0.04
2240000000 ,0.13,0.09,0.06,0.04
2290000000 ,0.13,0.09,0.06,0.04
2340000000 ,0.13,0.09,0.06,0.04
2400000000 ,0.13,0.08,0.06,0.04
2450000000 ,0.12,0.08,0.06,0.04
2510000000 ,0.12,0.08,0.06,0.04
2570000000 ,0.12,0.08,0.05,0.04
2630000000 ,0.11,0.08,0.05,0.04
2690000000 ,0.11,0.07,0.05,0.04
2750000000 ,0.11,0.07,0.05,0.03
2820000000 ,0.11,0.07,0.05,0.03
2880000000 ,0.1,0.07,0.05,0.03
2950000000 ,0.1,0.07,0.05,0.03
3020000000 ,0.1,0.07,0.05,0.03
3090000000 ,0.1,0.06,0.04,0.03
3160000000 ,0.09,0.06,0.04,0.03
3240000000 ,0.09,0.06,0.04,0.03
3310000000 ,0.09,0.06,0.04,0.03
3390000000 ,0.09,0.06,0.04,0.03
3470000000 ,0.09,0.06,0.04,0.03
3550000000 ,0.08,0.06,0.04,0.03
3630000000 ,0.08,0.05,0.04,0.03
3720000000 ,0.08,0.05,0.04,0.03
3800000000 ,0.08,0.05,0.04,0.02
3890000000 ,0.08,0.05,0.04,0.02
3980000000 ,0.08,0.05,0.03,0.02
4070000000 ,0.07,0.05,0.03,0.02
4170000000 ,0.07,0.05,0.03,0.02
4270000000 ,0.07,0.05,0.03,0.02
4370000000 ,0.07,0.05,0.03,0.02
4470000000 ,0.07,0.04,0.03,0.02
4570000000 ,0.07,0.04,0.03,0.02
4680000000 ,0.06,0.04,0.03,0.02
4790000000 ,0.06,0.04,0.03,0.02
4900000000 ,0.06,0.04,0.03,0.02
5010000000 ,0.06,0.04,0.03,0.02
5130000000 ,0.06,0.04,0.03,0.02
5250000000 ,0.06,0.04,0.03,0.02
5370000000 ,0.06,0.04,0.03,0.02
5500000000 ,0.05,0.04,0.03,0.02
5620000000 ,0.05,0.04,0.02,0.02
5750000000 ,0.05,0.03,0.02,0.02
5890000000 ,0.05,0.03,0.02,0.02
6030000000 ,0.05,0.03,0.02,0.02
6170000000 ,0.05,0.03,0.02,0.02
6310000000 ,0.05,0.03,0.02,0.02
6460000000 ,0.05,0.03,0.02,0.01
6610000000 ,0.05,0.03,0.02,0.01
6760000000 ,0.04,0.03,0.02,0.01
6920000000 ,0.04,0.03,0.02,0.01
7080000000 ,0.04,0.03,0.02,0.01
7240000000 ,0.04,0.03,0.02,0.01
7410000000 ,0.04,0.03,0.02,0.01
7590000000 ,0.04,0.03,0.02,0.01
7760000000 ,0.04,0.03,0.02,0.01
7940000000 ,0.04,0.03,0.02,0.01
8130000000 ,0.04,0.02,0.02,0.01
8320000000 ,0.04,0.02,0.02,0.01
8510000000 ,0.04,0.02,0.02,0.01
8710000000 ,0.03,0.02,0.02,0.01
8910000000 ,0.03,0.02,0.02,0.01
9120000000 ,0.03,0.02,0.02,0.01
9330000000 ,0.03,0.02,0.01,0.01
9550000000 ,0.03,0.02,0.01,0.01
9770000000 ,0.03,0.02,0.01,0.01
10000000000 ,0.03,0.02,0.01,0.01
